Time,Kinetic Energy,Potential Energy,Total Energy
0,50,49,99
0.05,55.01128,43.98892,99.0002
0.1,60.20351,38.79689,99.0004
0.15,65.50108,33.49954,99.00063
0.2,70.81023,28.19058,99.00081
0.25,76.02025,22.98073,99.00098
0.3,81.00623,17.99488,99.00111
0.35,85.6335,13.36769,99.00119
0.4,89.76395,9.237254,99.00121
0.45,93.26355,5.737617,99.00117
0.5,96.01085,2.990216,99.00107
0.55,97.90543,1.095479,99.00091
0.6,98.87546,0.1252556,99.00072
0.65,98.88335,0.1171641,99.00052
0.7,97.92881,1.071525,99.00034
0.75,96.04884,2.951341,99.00018
0.8,93.3148,5.685297,99.00009
0.85,89.82665,9.173394,99.00005
0.9,85.7056,13.29447,99.00008
0.95,81.08551,17.91465,99.00016
1,76.10449,22.8958,99.00029
1.05,70.89732,28.10317,99.00049
1.1,65.58907,33.41163,99.0007
1.15,60.29072,38.7102,99.00092
1.2,55.09627,43.90488,99.00114
1.25,50.08167,48.91969,99.00136
1.3,45.30494,53.69662,99.00156
1.35,40.80741,58.19433,99.00174
1.4,36.61548,62.38642,99.0019
1.45,32.74289,66.25916,99.00204
1.5,29.19293,69.80924,99.00217
1.55,25.96075,73.04153,99.00228
1.6,23.03532,75.96703,99.00235
1.65,20.40127,78.60114,99.00241
1.7,18.04034,80.96212,99.00246
1.75,15.93261,83.06987,99.00248
1.8,14.05747,84.94506,99.00253
1.85,12.39433,86.60821,99.00254
1.9,10.92317,88.07938,99.00255
1.95,9.624848,89.37772,99.00256
2,8.48143,90.52115,99.00258
2.05,7.47626,91.52634,99.00259
2.1,6.594046,92.40856,99.00261
2.15,5.82086,93.18176,99.00262
2.2,5.144116,93.85851,99.00262
2.25,4.552496,94.45013,99.00262
2.3,4.035881,94.96674,99.00262
2.35,3.585261,95.41736,99.00262
2.4,3.192647,95.80997,99.00262
2.45,2.850975,96.15164,99.00262
2.5,2.554026,96.44859,99.00261
2.55,2.296333,96.70627,99.0026
2.6,2.073113,96.92949,99.0026
2.65,1.880188,97.12241,99.00259
2.7,1.713922,97.28867,99.00259
2.75,1.571166,97.43143,99.00259
2.8,1.449201,97.55339,99.00259
2.85,1.345695,97.6569,99.00259
2.9,1.258662,97.74393,99.00259
2.95,1.186425,97.81616,99.00259
3,1.127592,97.87499,99.00259
3.05,1.081025,97.92155,99.00258
3.1,1.045821,97.95676,99.00258
3.15,1.021297,97.98129,99.00258
3.2,1.006979,97.9956,99.00258
3.25,1.002586,97.99998,99.00257
3.3,1.008035,97.99454,99.00257
3.35,1.023431,97.97914,99.00257
3.4,1.049074,97.95349,99.00256
3.45,1.08546,97.91711,99.00256
3.5,1.133295,97.86927,99.00256
3.55,1.193507,97.80905,99.00256
3.6,1.267258,97.7353,99.00256
3.65,1.355971,97.64658,99.00256
3.7,1.461354,97.5412,99.00256
3.75,1.585429,97.41712,99.00255
3.8,1.730567,97.27198,99.00255
3.85,1.89953,97.10301,99.00254
3.9,2.095517,96.90702,99.00254
3.95,2.32222,96.68032,99.00254
4,2.583877,96.41866,99.00253
4.05,2.885341,96.1172,99.00253
4.1,3.232156,95.77038,99.00253
4.15,3.630627,95.37191,99.00254
4.2,4.087912,94.91463,99.00255
4.25,4.612104,94.39045,99.00256
4.3,5.212329,93.79023,99.00256
4.35,5.898828,93.10374,99.00257
4.4,6.68305,92.31953,99.00258
4.45,7.577725,91.42485,99.00258
4.5,8.596924,90.40565,99.00258
4.55,9.756085,89.24651,99.00259
4.6,11.07201,87.93061,99.00262
4.65,12.56277,86.43986,99.00262
4.7,14.24761,84.75504,99.00264
4.75,16.14663,82.85605,99.00268
4.8,18.28046,80.72227,99.00273
4.85,20.66968,78.3331,99.00278
4.9,23.33409,75.66877,99.00285
4.95,26.29168,72.71124,99.00292
5,29.55747,69.44556,99.00302
5.05,33.1419,65.86123,99.00313
5.1,37.04908,61.95418,99.00327
5.15,41.2747,57.72871,99.0034
5.2,45.80378,53.19981,99.00359
5.25,50.60843,48.39534,99.00377
5.3,55.64561,43.35836,99.00397
5.35,60.85543,38.14875,99.00417
5.4,66.15999,32.84439,99.00438
5.45,71.46336,27.54119,99.00456
5.5,76.65291,22.3518,99.00471
5.55,81.60222,17.40262,99.00484
5.6,86.17584,12.82908,99.00492
5.65,90.23569,8.769243,99.00494
5.7,93.64884,5.356047,99.00489
5.75,96.29598,2.708793,99.00478
5.8,98.07984,0.9247776,99.00462
5.85,98.93255,0.07188323,99.00443
5.9,98.82101,0.1832394,99.00425
5.95,97.74955,1.254511,99.00406
6,95.75967,3.244238,99.00391
6.05,92.92661,6.077205,99.00381
6.1,89.3534,9.650384,99.00378
6.15,85.16325,13.84056,99.00381
6.2,80.49103,18.5129,99.00392
6.25,75.47482,23.52925,99.00407
6.3,70.2485,28.75575,99.00425
6.35,64.93565,34.0688,99.00444
6.4,59.64524,39.35944,99.00468
6.45,54.4691,44.53582,99.00493
6.5,49.48093,49.52421,99.00514
6.55,44.73663,54.2687,99.00533
6.6,40.27555,58.72998,99.00553
6.65,36.12243,62.88327,99.0057
6.7,32.28957,66.71628,99.00585
6.75,28.77917,70.22679,99.00596
6.8,25.58549,73.42056,99.00604
6.85,22.69688,76.30925,99.00613
6.9,20.09752,78.90865,99.00616
6.95,17.7689,81.23732,99.00623
7,15.69097,83.31528,99.00625
7.05,13.84309,85.16318,99.00626
7.1,12.2047,86.80159,99.00629
7.15,10.75586,88.25043,99.00629
7.2,9.477601,89.52869,99.00629
7.25,8.352118,90.65419,99.00631
7.3,7.362924,91.64339,99.00631
7.35,6.494895,92.51142,99.00632
7.4,5.734275,93.27204,99.00632
7.45,5.068635,93.93769,99.00632
7.5,4.486809,94.51952,99.00633
7.55,3.978822,95.0275,99.00632
7.6,3.535794,95.47053,99.00632
7.65,3.149855,95.85647,99.00632
7.7,2.814051,96.19228,99.00632
7.75,2.52226,96.48406,99.00632
7.8,2.269106,96.73722,99.00632
7.85,2.049883,96.95644,99.00632
7.9,1.860483,97.14584,99.00632
7.95,1.697337,97.30898,99.00631
8,1.55735,97.44896,99.00631
8.05,1.437854,97.56846,99.00631
8.1,1.336565,97.66975,99.00631
8.15,1.251539,97.75477,99.00631
8.2,1.181136,97.82516,99.0063
8.25,1.123999,97.8823,99.0063
8.3,1.079023,97.92728,99.0063
8.35,1.045336,97.96097,99.0063
8.4,1.022285,97.98402,99.0063
8.45,1.009422,97.99687,99.00629
8.5,1.006498,97.99979,99.00629
8.55,1.013455,97.99284,99.00629
8.6,1.030429,97.97586,99.00629
8.65,1.05775,97.94854,99.00629
8.7,1.095947,97.91034,99.00629
8.75,1.145761,97.86053,99.00629
8.8,1.208156,97.79813,99.00628
8.85,1.284339,97.72194,99.00628
8.9,1.375777,97.63049,99.00627
8.95,1.484231,97.52204,99.00627
9,1.61178,97.39449,99.00626
9.05,1.760859,97.24541,99.00626
9.1,1.934303,97.07196,99.00626
9.15,2.135394,96.87087,99.00626
9.2,2.367914,96.63835,99.00626
9.25,2.636204,96.37006,99.00626
9.3,2.945235,96.06103,99.00626
9.35,3.300677,95.70559,99.00626
9.4,3.708981,95.2973,99.00629
9.45,4.177461,94.82883,99.00629
9.5,4.714388,94.29189,99.00627
9.55,5.329079,93.67721,99.00629
9.6,6.031982,92.97429,99.00627
9.65,6.834771,92.17151,99.00628
9.7,7.750405,91.25586,99.00626
9.75,8.793198,90.2131,99.00629
9.8,9.978828,89.0275,99.00632
9.85,11.32433,87.68203,99.00636
9.9,12.848,86.1584,99.00641
9.95,14.56925,84.43719,99.00644
10,16.50832,82.49812,99.00644
10.05,18.68586,80.32065,99.00652
10.1,21.12239,77.88417,99.00656
10.15,23.83745,75.16917,99.00662
10.2,26.84863,72.1581,99.00673
10.25,30.17024,68.83657,99.00681
10.3,33.81175,65.19518,99.00693
10.35,37.77593,61.23109,99.00703
10.4,42.05676,56.95042,99.00719
10.45,46.63714,52.37025,99.00739
10.5,51.48664,47.52097,99.00761
10.55,56.55936,42.44844,99.0078
10.6,61.79229,37.21576,99.00805
10.65,67.10429,31.90399,99.00828
10.7,72.39633,26.61212,99.00845
10.75,77.55307,21.45553,99.00861
10.8,82.44609,16.56265,99.00874
10.85,86.93899,12.06982,99.00881
10.9,90.89395,8.114877,99.00883
10.95,94.17986,4.828915,99.00877
11,96.68066,2.327983,99.00864
11.05,98.30381,0.7046558,99.00847
11.1,98.98727,0.02100231,99.00828
11.15,98.70446,0.3036294,99.00809
11.2,97.4664,1.54152,99.00792
11.25,95.32087,3.686911,99.00778
11.3,92.34852,6.659158,99.00768
11.35,88.65659,10.35108,99.00767
11.4,84.37096,14.63678,99.00774
11.45,79.62769,19.38014,99.00783
11.5,74.56461,24.44336,99.00797
11.55,69.31419,29.69394,99.00813
11.6,63.99767,35.01063,99.0083
11.65,58.72117,40.28735,99.00851
11.7,53.57331,45.43544,99.00876
11.75,48.62461,50.38437,99.00897
11.8,43.9279,55.08128,99.00917
11.85,39.51981,59.48958,99.00938
11.9,35.42271,63.58679,99.00949
11.95,31.64694,67.36268,99.00962
12,28.19315,70.81657,99.00971
12.05,25.05439,73.95538,99.00977
12.1,22.21819,76.79166,99.00985
12.15,19.66813,79.34175,99.00987
12.2,17.38534,81.62457,99.0099
12.25,15.34962,83.66029,99.00991
12.3,13.54028,85.46964,99.00992
12.35,11.93686,87.07305,99.00991
12.4,10.51956,88.49036,99.00993
12.45,9.269597,89.74034,99.00994
12.5,8.169401,90.84054,99.00994
12.55,7.202718,91.80724,99.00996
12.6,6.354671,92.65527,99.00994
12.65,5.611741,93.39819,99.00993
12.7,4.961723,94.04821,99.00993
12.75,4.393675,94.61626,99.00994
12.8,3.897819,95.11213,99.00995
12.85,3.465463,95.54448,99.00994
12.9,3.088905,95.92104,99.00994
12.95,2.761343,96.24859,99.00993
13,2.476794,96.53313,99.00992
13.05,2.230005,96.77991,99.00992
13.1,2.016384,96.99352,99.0099
13.15,1.831924,97.17799,99.00991
13.2,1.673144,97.33676,99.0099
13.25,1.537028,97.47288,99.0099
13.3,1.420983,97.58892,99.0099
13.35,1.322788,97.68712,99.0099
13.4,1.240555,97.76935,99.0099
13.45,1.172702,97.8372,99.0099
13.5,1.117916,97.89199,99.00991
13.55,1.075139,97.93476,99.0099
13.6,1.043542,97.96636,99.0099
13.65,1.022511,97.98739,99.0099
13.7,1.011639,97.99826,99.0099
13.75,1.010713,97.99918,99.0099
13.8,1.019717,97.99017,99.00989
13.85,1.038826,97.97107,99.0099
13.9,1.068408,97.94148,99.00989
13.95,1.109038,97.90085,99.00989
14,1.161505,97.84838,99.00989
14.05,1.226823,97.78307,99.00989
14.1,1.306253,97.70364,99.00989
14.15,1.401327,97.60856,99.00989
14.2,1.513871,97.49602,99.00989
14.25,1.646044,97.36385,99.00989
14.3,1.800364,97.20952,99.00988
14.35,1.979766,97.03012,99.00989
14.4,2.187638,96.82225,99.00989
14.45,2.427884,96.58201,99.0099
14.5,2.704982,96.30491,99.00989
14.55,3.024055,95.98584,99.0099
14.6,3.390944,95.61896,99.0099
14.65,3.812288,95.1976,99.00989
14.7,4.295615,94.71429,99.0099
14.75,4.849423,94.16049,99.00992
14.8,5.48328,93.52662,99.0099
14.85,6.207909,92.802,99.00991
14.9,7.035265,91.97465,99.00991
14.95,7.97862,91.03132,99.00994
15,9.052595,89.95737,99.00996
15.05,10.27318,88.73677,99.00996
15.1,11.65772,87.35226,99.00998
15.15,13.22478,85.78522,99.01
15.2,14.99397,84.01608,99.01006
15.25,16.9857,82.02436,99.01006
15.3,19.22063,79.7895,99.01012
15.35,21.71913,77.29103,99.01016
15.4,24.5004,74.50982,99.01022
15.45,27.58141,71.42888,99.01029
15.5,30.97552,68.0349,99.01041
15.55,34.69083,64.31968,99.01051
15.6,38.7283,60.28232,99.01062
15.65,43.07958,55.93122,99.0108
15.7,47.72474,51.28623,99.01097
15.75,52.62997,46.38119,99.01116
15.8,57.74561,41.26576,99.01137
15.85,63.00452,36.00708,99.0116
15.9,68.32145,30.69031,99.01176
15.95,73.59341,25.41855,99.01196
16,78.70175,20.31038,99.01213
16.05,83.5157,15.49651,99.01221
16.1,87.89788,11.11441,99.01228
16.15,91.71127,7.300983,99.01225
16.2,94.82741,4.18474,99.01215
16.25,97.13496,1.87708,99.01204
16.3,98.54774,0.4641282,99.01186
16.35,99.01147,0.0002014447,99.01167
16.4,98.50807,0.5034049,99.01147
16.45,97.05717,1.95413,99.01131
16.5,94.71451,4.296657,99.01116
16.55,91.56743,7.443697,99.01112
16.6,87.72814,11.28298,99.01112
16.65,83.32565,15.68553,99.01118
16.7,78.49711,20.51416,99.01127
16.75,73.37975,25.63166,99.01141
16.8,68.10389,30.90774,99.01163
16.85,62.78764,36.22419,99.01183
16.9,57.53325,41.47881,99.01205
16.95,52.42521,46.58706,99.01227
17,47.52991,51.48252,99.01244
17.05,42.89637,56.11628,99.01265
17.1,38.55775,60.45511,99.01286
17.15,34.53347,64.47953,99.013
17.2,30.83146,68.18169,99.01315
17.25,27.45044,71.56278,99.01322
17.3,24.38204,74.63129,99.01334
17.35,21.61274,77.40063,99.01338
17.4,19.12546,79.88796,99.01342
17.45,16.90092,82.11255,99.01347
17.5,14.91873,84.09475,99.01348
17.55,13.15823,85.85526,99.01349
17.6,11.59905,87.41446,99.0135
17.65,10.2216,88.79192,99.01352
17.7,9.007369,90.00618,99.01355
17.75,7.939075,91.07449,99.01356
17.8,7.000776,92.01279,99.01357
17.85,6.177907,92.83566,99.01357
17.9,5.457253,93.55633,99.01358
17.95,4.826909,94.18666,99.01357
18,4.2762,94.73735,99.01355
18.05,3.795606,95.21793,99.01354
18.1,3.376668,95.63688,99.01355
18.15,3.011901,96.00163,99.01353
18.2,2.694698,96.31884,99.01353
18.25,2.419251,96.59428,99.01353
18.3,2.180464,96.83305,99.01352
18.35,1.973885,97.03964,99.01353
18.4,1.795635,97.21788,99.01351
18.45,1.642342,97.37118,99.01352
18.5,1.511096,97.50243,99.01352
18.55,1.39939,97.61413,99.01352
18.6,1.305084,97.70843,99.01351
18.65,1.226366,97.78714,99.0135
18.7,1.161717,97.85178,99.0135
18.75,1.109889,97.90361,99.0135
18.8,1.06988,97.94362,99.0135
18.85,1.040913,97.97258,99.0135
18.9,1.022427,97.99107,99.0135
18.95,1.014062,97.99943,99.01349
19,1.015659,97.99783,99.01349
19.05,1.027243,97.98624,99.01349
19.1,1.049045,97.96444,99.01348
19.15,1.081485,97.93201,99.01349
19.2,1.125192,97.88829,99.01348
19.25,1.181014,97.83247,99.01348
19.3,1.250028,97.76346,99.01349
19.35,1.333569,97.67991,99.01348
19.4,1.433246,97.58023,99.01347
19.45,1.550973,97.46249,99.01347
19.5,1.689003,97.32446,99.01347
19.55,1.849965,97.16351,99.01347
19.6,2.036914,96.97655,99.01347
19.65,2.253377,96.76009,99.01347
19.7,2.50341,96.51006,99.01347
19.75,2.791664,96.2218,99.01347
19.8,3.123455,95.89001,99.01347
19.85,3.504837,95.50863,99.01347
19.9,3.942688,95.07078,99.01347
19.95,4.4448,94.56867,99.01347
