Time,Kinetic Energy,Potential Energy,Total Energy
0,0,49,49
0.05,0.1170921,48.88095,48.99805
0.1,0.456868,48.52773,48.9846
0.15,1.002758,47.94618,48.94894
0.2,1.738945,47.14223,48.88117
0.25,2.650124,46.12204,48.77216
0.3,3.721207,44.89233,48.61353
0.35,4.937012,43.46067,48.39768
0.4,6.281921,41.83582,48.11774
0.45,7.739552,40.0281,47.76765
0.5,9.292439,38.0498,47.34224
0.55,10.92176,35.91544,46.8372
0.6,12.60713,33.64207,46.24919
0.65,14.32642,31.24957,45.57598
0.7,16.05575,28.76071,44.81646
0.75,17.7696,26.20115,43.97075
0.8,19.44095,23.59935,43.0403
0.85,21.0417,20.9862,42.02791
0.9,22.54319,18.39466,40.93785
0.95,23.91685,15.85894,39.77579
1,25.13496,13.41385,38.54881
1.05,26.17158,11.09377,37.26535
1.1,27.00344,8.931649,35.93509
1.15,27.61088,6.957885,34.56876
1.2,27.97868,5.199307,33.17799
1.25,28.09683,3.678198,31.77502
1.3,27.96101,2.411482,30.37249
1.35,27.57298,1.410094,28.98308
1.4,26.94056,0.6786495,27.61921
1.45,26.07745,0.2153508,26.2928
1.5,25.00275,0.01217953,25.01493
1.55,23.74024,0.05535502,23.7956
1.6,22.31751,0.3260108,22.64352
1.65,20.76492,0.8010355,21.56595
1.7,19.11457,1.454031,20.5686
1.75,17.3992,2.256331,19.65553
1.8,15.6512,3.177982,18.82918
1.85,13.90171,4.188688,18.0904
1.9,12.17986,5.258663,17.43852
1.95,10.51217,6.359318,16.87148
2,8.922129,7.463864,16.38599
2.05,7.429924,8.547703,15.97763
2.1,6.052301,9.588772,15.64107
2.15,4.802576,10.56767,15.37025
2.2,3.690728,11.46777,15.1585
2.25,2.723578,12.27517,14.99875
2.3,1.90502,12.97862,14.88364
2.35,1.236275,13.56944,14.80572
2.4,0.7161667,14.04135,14.75751
2.45,0.3413926,14.39027,14.73166
2.5,0.1067851,14.61422,14.72101
2.55,0.005553097,14.71317,14.71872
2.6,0.02950346,14.68882,14.71833
2.65,0.1692394,14.54456,14.7138
2.7,0.4143391,14.28527,14.69961
2.75,0.7535153,13.91725,14.67076
2.8,1.174763,13.44809,14.62285
2.85,1.665497,12.8866,14.5521
2.9,2.212687,12.24266,14.45534
2.95,2.802995,11.5271,14.33009
3,3.422914,10.75162,14.17453
3.05,4.058921,9.9286,13.98752
3.1,4.697637,9.07094,13.76858
3.15,5.325995,8.191905,13.5179
3.2,5.931433,7.304896,13.23633
3.25,6.50207,6.423238,12.92531
3.3,7.026911,5.559955,12.58687
3.35,7.496027,4.727508,12.22354
3.4,7.900742,3.937583,11.83832
3.45,8.233794,3.200843,11.43464
3.5,8.489476,2.526736,11.01621
3.55,8.663745,1.923279,10.58702
3.6,8.754288,1.396923,10.15121
3.65,8.760555,0.9524217,9.712977
3.7,8.683743,0.592774,9.276518
3.75,8.526725,0.3191933,8.845918
3.8,8.293952,0.1311343,8.425086
3.85,7.991297,0.02637011,8.017667
3.9,7.625875,0.001106655,7.626982
3.95,7.205832,0.05013929,7.255971
4,6.740105,0.1670354,6.907141
4.05,6.238197,0.3443461,6.582543
4.1,5.709913,0.5738292,6.283742
4.15,5.165132,0.84668,6.011812
4.2,4.613581,1.153746,5.767327
4.25,4.064627,1.485766,5.550393
4.3,3.5271,1.833558,5.360658
4.35,3.009135,2.188209,5.197343
4.4,2.518052,2.541229,5.059281
4.45,2.060259,2.884713,4.944972
4.5,1.641186,3.211411,4.852597
4.55,1.265249,3.514871,4.78012
4.6,0.9358324,3.789455,4.725288
4.65,0.6552976,4.030413,4.685711
4.7,0.4250109,4.233894,4.658905
4.75,0.245383,4.396965,4.642347
4.8,0.1159257,4.51759,4.633515
4.85,0.03531555,4.594607,4.629922
4.9,0.00146788,4.627716,4.629184
4.95,0.01161487,4.617413,4.629028
5,0.06238919,4.564939,4.627328
5.05,0.1499099,4.47225,4.62216
5.1,0.2698705,4.341913,4.611783
5.15,0.417628,4.177063,4.59469
5.2,0.5882928,3.981328,4.56962
5.25,0.7768173,3.758729,4.535547
5.3,0.9780838,3.513628,4.491712
5.35,1.186991,3.250611,4.437602
5.4,1.398539,2.974419,4.372958
5.45,1.607907,2.689867,4.297774
5.5,1.810532,2.40174,4.212272
5.55,2.002176,2.114717,4.116893
5.6,2.178993,1.833299,4.012292
5.65,2.337586,1.561705,3.899292
5.7,2.475048,1.303829,3.778877
5.75,2.589005,1.063165,3.65217
5.8,2.677642,0.8427491,3.520391
5.85,2.739714,0.6451242,3.384838
5.9,2.774554,0.4723099,3.246864
5.95,2.782065,0.3257667,3.107832
6,2.762694,0.206404,2.969098
6.05,2.717407,0.1145791,2.831986
6.1,2.647647,0.05010971,2.697757
6.15,2.555285,0.01230539,2.56759
6.2,2.442561,5.982809E-08,2.442561
6.25,2.312023,0.01160142,2.323625
6.3,2.166462,0.04514182,2.211604
6.35,2.008839,0.09833514,2.107174
6.4,1.842221,0.1686425,2.010864
6.45,1.669714,0.253332,1.923046
6.5,1.494391,0.3495439,1.843935
6.55,1.319241,0.4543557,1.773597
6.6,1.147108,0.5648468,1.711955
6.65,0.9806423,0.6781448,1.658787
6.7,0.8222616,0.7914876,1.613749
6.75,0.6741147,0.9022713,1.576386
6.8,0.538054,1.008079,1.546133
6.85,0.4156176,1.106732,1.52235
6.9,0.308016,1.196304,1.50432
6.95,0.2161274,1.275154,1.491281
7,0.1404992,1.341931,1.48243
7.05,0.08135603,1.395594,1.47695
7.1,0.03861192,1.435401,1.474013
7.15,0.01188902,1.460926,1.472815
7.2,0.0005392683,1.472024,1.472563
7.25,0.00367024,1.468842,1.472513
7.3,0.02017355,1.451795,1.471969
7.35,0.04875566,1.421535,1.47029
7.4,0.08797027,1.378939,1.466909
7.45,0.1362518,1.325083,1.461335
7.5,0.1919491,1.261206,1.453155
7.55,0.2533598,1.18868,1.44204
7.6,0.3187625,1.108985,1.427747
7.65,0.38645,1.023669,1.410119
7.7,0.4547591,0.9343262,1.389085
7.75,0.5220988,0.8425538,1.364653
7.8,0.586977,0.7499331,1.33691
7.85,0.6480233,0.6579893,1.306013
7.9,0.704009,0.5681768,1.272186
7.95,0.753864,0.4818453,1.235709
8,0.7966896,0.400222,1.196912
8.05,0.8317677,0.3243983,1.156166
8.1,0.8585674,0.2553028,1.11387
8.15,0.8767447,0.1937056,1.07045
8.2,0.8861429,0.1401974,1.02634
8.25,0.8867854,0.09519444,0.9819798
8.3,0.8788674,0.05893516,0.9378026
8.35,0.8627448,0.0314833,0.8942281
8.4,0.838919,0.01273569,0.8516546
8.45,0.8080202,0.002431753,0.810452
8.5,0.7707895,0.000166352,0.7709559
8.55,0.7280588,0.005403718,0.7334625
8.6,0.6807299,0.01749452,0.6982244
8.65,0.629754,0.0356939,0.6654479
8.7,0.5761099,0.05918088,0.6352907
8.75,0.5207841,0.08707786,0.6078619
8.8,0.4647511,0.1184713,0.5832224
8.85,0.4089544,0.1524281,0.5613825
8.9,0.3542906,0.188016,0.5423066
8.95,0.3015943,0.2243239,0.5259182
9,0.2516241,0.2604745,0.5120987
9.05,0.205053,0.2956433,0.5006963
9.1,0.1624585,0.3290673,0.4915258
9.15,0.1243178,0.360058,0.4843758
9.2,0.09100259,0.3880088,0.4790114
9.25,0.06277786,0.4124104,0.4751883
9.3,0.03980185,0.4328425,0.4726443
9.35,0.02212863,0.4489885,0.4711172
9.4,0.0097121,0.4606285,0.4703406
9.45,0.002411839,0.467645,0.4700569
9.5,4.309616E-07,0.470015,0.4700154
9.55,0.002171959,0.467806,0.469978
9.6,0.008551571,0.4611752,0.4697268
9.65,0.01870588,0.4503528,0.4690587
9.7,0.03215387,0.4356452,0.467799
9.75,0.04837813,0.4174168,0.4657949
9.8,0.06683636,0.396085,0.4629214
9.85,0.08697268,0.3721078,0.4590805
9.9,0.1082286,0.3459739,0.4542025
9.95,0.1300537,0.3181911,0.4482448
10,0.1519155,0.2892786,0.4411941
10.05,0.1733086,0.2597508,0.4330595
10.1,0.193763,0.2301133,0.4238763
10.15,0.2128511,0.2008525,0.4137035
10.2,0.2301938,0.1724253,0.402619
10.25,0.2454656,0.1452515,0.3907171
10.3,0.2583977,0.1197119,0.3781096
10.35,0.2687809,0.09613755,0.3649185
10.4,0.2764664,0.07480875,0.3512751
10.45,0.2813658,0.05595092,0.3373167
10.5,0.2834502,0.03973439,0.3231846
10.55,0.2827474,0.02627001,0.3090174
10.6,0.2793387,0.01561505,0.2949537
10.65,0.273355,0.007770415,0.2811254
10.7,0.2649718,0.002685553,0.2676573
10.75,0.2544035,0.0002605221,0.254664
10.8,0.2418974,0.0003511377,0.2422485
10.85,0.2277275,0.002773775,0.2305013
10.9,0.2121876,0.007310465,0.2194981
10.95,0.1955848,0.01371477,0.2092996
11,0.1782331,0.02171796,0.1999511
11.05,0.1604467,0.03103603,0.1914827
11.1,0.142534,0.04137446,0.1839085
11.15,0.1247921,0.05243452,0.1772266
11.2,0.1075014,0.06392004,0.1714215
11.25,0.09092149,0.07554325,0.1664647
11.3,0.0752864,0.08702736,0.1623138
11.35,0.06080213,0.09811482,0.158917
11.4,0.04764362,0.1085674,0.156211
11.45,0.03595307,0.1181739,0.154127
11.5,0.02583878,0.1267506,0.1525893
11.55,0.01737471,0.1341407,0.1515154
11.6,0.01060084,0.1402221,0.150823
11.65,0.005523966,0.1449025,0.1504265
11.7,0.002119222,0.1481235,0.1502427
11.75,0.0003320822,0.1498549,0.150187
11.8,8.081851E-05,0.1501015,0.1501823
11.85,0.001259369,0.1488942,0.1501535
11.9,0.003740527,0.146292,0.1500325
11.95,0.007379356,0.14238,0.1497594
12,0.01201682,0.1372616,0.1492784
12.05,0.01748343,0.1310608,0.1485443
12.1,0.023603,0.1239165,0.1475195
12.15,0.03019623,0.1159803,0.1461765
12.2,0.0370843,0.1074108,0.1444951
12.25,0.04409214,0.09837361,0.1424658
12.3,0.05105166,0.08903483,0.1400865
12.35,0.05780464,0.07955859,0.1373632
12.4,0.06420499,0.07010558,0.1343106
12.45,0.07012119,0.06082894,0.1309501
12.5,0.0754381,0.0518698,0.1273079
12.55,0.08005802,0.04335891,0.1234169
12.6,0.08390196,0.03541245,0.1193144
12.65,0.08691032,0.02812992,0.1150402
12.7,0.08904289,0.02159432,0.1106372
12.75,0.09027854,0.01587193,0.1061505
12.8,0.09061511,0.01100926,0.1016244
12.85,0.09006799,0.007035433,0.09710342
12.9,0.08866948,0.003961807,0.09263129
12.95,0.08646689,0.001782564,0.08824946
13,0.08352116,0.0004755432,0.08399671
13.05,0.07990506,3.21225E-06,0.07990827
13.1,0.07570112,0.0003146567,0.07601579
13.15,0.07099934,0.001346929,0.07234627
13.2,0.06589548,0.003026723,0.06892221
13.25,0.06048879,0.005272666,0.06576146
13.3,0.05487972,0.007996729,0.06287646
13.35,0.04916826,0.01110667,0.06027494
13.4,0.04345186,0.01450768,0.05795954
13.45,0.03782367,0.0181047,0.05592836
13.5,0.03237101,0.02180309,0.0541741
13.55,0.02717407,0.02551285,0.05268691
13.6,0.02230448,0.02914686,0.05145135
13.65,0.01782462,0.03262506,0.05044968
13.7,0.01378665,0.03587424,0.04966088
13.75,0.01023213,0.03882988,0.04906201
13.8,0.007191758,0.04143714,0.0486289
13.85,0.004685163,0.04364857,0.04833374
13.9,0.002721225,0.04542931,0.04815054
13.95,0.001298332,0.04675352,0.04805185
14,0.0004049671,0.04760638,0.04801134
14.05,2.03471E-05,0.04798192,0.04800227
14.1,0.0001153149,0.04788583,0.04800115
14.15,0.0006532829,0.04733082,0.0479841
14.2,0.00159128,0.04633811,0.04792939
14.25,0.002881083,0.04493776,0.04781885
14.3,0.00447037,0.0431658,0.04763617
14.35,0.006303921,0.04106332,0.04736724
14.4,0.008324789,0.03867751,0.0470023
14.45,0.0104755,0.03605683,0.04653233
14.5,0.01269914,0.03325379,0.04595293
14.55,0.01494041,0.03032119,0.0452616
14.6,0.01714659,0.02731289,0.04445948
14.65,0.01926845,0.02428041,0.04354887
14.7,0.02126099,0.02127388,0.04253487
14.75,0.02308398,0.01834172,0.0414257
14.8,0.02470271,0.01552729,0.04023
14.85,0.02608824,0.01287096,0.0389592
14.9,0.02721761,0.01040767,0.03762528
14.95,0.02807415,0.008167742,0.03624189
15,0.02864739,0.006175123,0.03482252
15.05,0.02893288,0.004449011,0.03338189
15.1,0.02893215,0.003001844,0.03193399
15.15,0.02865221,0.001841085,0.03049329
15.2,0.02810532,0.0009679286,0.02907325
15.25,0.02730834,0.0003785673,0.02768691
15.3,0.02628229,6.392915E-05,0.02634622
15.35,0.02505166,1.038496E-05,0.02506205
15.4,0.02364376,0.0002001671,0.02384393
15.45,0.02208824,0.0006118688,0.02270011
15.5,0.0204161,0.001220911,0.02163701
15.55,0.01865937,0.0020005,0.02065987
15.6,0.01685014,0.002921882,0.01977203
15.65,0.01502015,0.003954976,0.01897513
15.7,0.01320009,0.005069599,0.01826968
15.75,0.01141907,0.006235261,0.01765433
15.8,0.009704216,0.00742228,0.0171265
15.85,0.008080171,0.008601978,0.01668215
15.9,0.006568724,0.009747561,0.01631629
15.95,0.005188593,0.01083414,0.01602273
16,0.00395521,0.01183955,0.01579476
16.05,0.002880542,0.01274421,0.01562476
16.1,0.001973039,0.01353131,0.01550435
16.15,0.00123768,0.01418696,0.01542464
16.2,0.0006760207,0.01470147,0.01537749
16.25,0.0002863237,0.01506771,0.01535403
16.3,6.37476E-05,0.01528226,0.01534601
16.35,5.939563E-07,0.01534417,0.01534477
16.4,8.659288E-05,0.0152566,0.01534319
16.45,0.0003092229,0.01502486,0.01533408
16.5,0.0006540559,0.01465629,0.01531034
16.55,0.001105114,0.01416167,0.01526679
16.6,0.001645277,0.01355328,0.01519856
16.65,0.002256616,0.01284459,0.0151012
16.7,0.002920824,0.01205106,0.01497189
16.75,0.003619522,0.01118877,0.01480829
16.8,0.004334679,0.01027458,0.01460926
16.85,0.005048875,0.009325812,0.01437469
16.9,0.005745666,0.008358996,0.01410466
16.95,0.0064098,0.007390595,0.01380039
17,0.007027424,0.006436645,0.01346407
17.05,0.007586336,0.005512077,0.01309841
17.1,0.008076168,0.0046302,0.01270637
17.15,0.008488373,0.003803572,0.01229195
17.2,0.008816401,0.003042516,0.01185892
17.25,0.009055676,0.002356002,0.01141168
17.3,0.009203577,0.001751214,0.01095479
17.35,0.009259476,0.001233313,0.01049279
17.4,0.009224518,0.0008058351,0.01003035
17.45,0.009101633,0.0004702055,0.009571838
17.5,0.008895324,0.0002262787,0.009121602
17.55,0.00861151,7.209009E-05,0.0086836
17.6,0.008257355,4.2394E-06,0.008261594
17.65,0.007841044,1.784162E-05,0.007858885
17.7,0.007371634,0.0001067054,0.00747834
17.75,0.006858821,0.0002635786,0.007122399
17.8,0.006312667,0.0004803177,0.006792985
17.85,0.005743421,0.0007481172,0.006491538
17.9,0.005161311,0.001057589,0.006218901
17.95,0.004576395,0.001399049,0.005975444
18,0.003998297,0.001762742,0.005761039
18.05,0.003436127,0.002139054,0.00557518
18.1,0.00289823,0.002518706,0.005416936
18.15,0.002392162,0.00289268,0.005284842
18.2,0.001924505,0.003252565,0.005177069
18.25,0.001500862,0.003590704,0.005091567
18.3,0.001125741,0.003900327,0.005026068
18.35,0.0008025319,0.004175646,0.004978178
18.4,0.000533511,0.004411623,0.004945134
18.45,0.0003198386,0.004604305,0.004924144
18.5,0.0001616047,0.004750869,0.004912473
18.55,5.786548E-05,0.004849306,0.004907171
18.6,6.711987E-06,0.004899068,0.00490578
18.65,5.354931E-06,0.004900389,0.004905744
18.7,5.022143E-05,0.004854238,0.004904459
18.75,0.0001370579,0.004762914,0.004899972
18.8,0.0002610479,0.004629001,0.004890049
18.85,0.0004169222,0.004456256,0.004873178
18.9,0.0005990953,0.004248865,0.00484796
18.95,0.0008017737,0.00401136,0.004813134
19,0.00101908,0.003748538,0.004767617
19.05,0.001245167,0.003465936,0.004711103
19.1,0.001474338,0.003168848,0.004643186
19.15,0.00170114,0.002862548,0.004563687
19.2,0.001920439,0.002552697,0.004473136
19.25,0.00212753,0.002244235,0.004371766
19.3,0.002318181,0.001942292,0.004260473
19.35,0.002488707,0.001651586,0.004140293
19.4,0.002636017,0.001376015,0.004012032
19.45,0.002757629,0.001119411,0.00387704
19.5,0.002851687,0.0008850451,0.003736732
19.55,0.002916978,0.0006754742,0.003592453
19.6,0.002952916,0.0004927077,0.003445623
19.65,0.002959515,0.0003381916,0.003297707
19.7,0.00293737,0.0002128002,0.00315017
19.75,0.002887608,0.0001168335,0.003004442
19.8,0.002811856,4.999004E-05,0.002861846
19.85,0.002712153,1.149736E-05,0.002723651
19.9,0.002590943,4.650311E-08,0.002590989
19.95,0.002450947,1.391304E-05,0.00246486
