Time,Kinetic Energy,Potential Energy,Total Energy
0,0,49,49
0.1,0.4802001,48.03967,48.51987
0.2,1.920431,46.12066,48.04109
0.3,4.31627,43.2529,47.56916
0.4,7.649347,39.46768,47.11703
0.5,11.87127,34.83637,46.70764
0.6,16.88269,29.49267,46.37535
0.7,22.51064,23.6541,46.16473
0.8,28.48992,17.63541,46.12534
0.9,34.45688,11.84499,46.30186
1,39.96482,6.755707,46.72053
1.1,44.52748,2.847714,47.3752
1.2,47.68851,0.5304831,48.21899
1.3,49.10335,0.06350671,49.16685
1.4,48.6103,1.500579,50.11088
1.5,46.26624,4.677758,50.944
1.6,42.3339,9.249542,51.58344
1.7,37.22536,14.75982,51.98518
1.8,31.42225,20.72341,52.14566
1.9,25.39773,26.69512,52.09285
2,19.55947,32.31274,51.87221
2.1,14.22094,37.31227,51.53322
2.2,9.598245,41.5216,51.11984
2.3,5.823809,44.84187,50.66568
2.4,2.968012,47.22492,50.19293
2.5,1.061481,48.65244,49.71392
2.6,0.1137948,49.11995,49.23375
2.7,0.1264711,48.62707,48.75354
2.8,1.099504,47.17423,48.27373
2.9,3.031276,44.76612,47.79739
3,5.911847,41.42158,47.33342
3.1,9.709801,37.18985,46.89965
3.2,14.35342,32.17141,46.52483
3.3,19.70832,26.5406,46.24893
3.4,25.55597,20.56403,46.12
3.5,31.58025,14.6064,46.18665
3.6,37.37129,9.114636,46.48592
3.7,42.45484,4.574119,47.02896
3.8,46.35005,1.439109,47.78916
3.9,48.6478,0.05111803,48.69891
4,49.09023,0.5686036,49.65883
4.1,47.62629,2.931967,50.55826
4.2,44.42318,6.876891,51.30008
4.3,39.8294,11.99097,51.82037
4.4,34.30314,17.79332,52.09646
4.5,28.33042,23.81213,52.14255
4.6,22.35616,29.64124,51.99741
4.7,16.74152,34.96851,51.71002
4.8,11.74909,39.57888,51.32798
4.9,7.54963,43.34057,50.8902
5,4.240848,46.18354,50.42439
5.1,1.870091,48.07732,49.94741
5.2,0.455181,49.01231,49.46749
5.3,0.0003346549,48.98696,48.9873
5.4,0.5058882,48.00129,48.50718
5.5,1.971438,46.05703,48.02847
5.6,4.392347,43.16452,47.55687
5.7,7.749685,39.35582,47.10551
5.8,11.994,34.70365,46.69765
5.9,17.02429,29.34368,46.36797
6,22.66535,23.49589,46.16124
6.1,28.6494,17.47761,46.12701
6.2,34.61026,11.69944,46.30971
6.3,40.09954,6.635323,46.73486
6.4,44.63074,2.76456,47.39531
6.5,47.74941,0.4936616,48.24307
6.6,49.11504,0.07723472,49.19228
6.7,48.57143,1.563261,50.13469
6.8,46.18126,4.782349,50.96361
6.9,42.21209,9.385074,51.59716
7,37.07891,14.9135,51.9924
7.1,31.26406,20.88272,52.14678
7.2,25.23961,26.84931,52.08892
7.3,19.41095,32.45357,51.86452
7.4,14.08896,37.43409,51.52305
7.5,9.487274,41.62095,51.10822
7.6,5.736407,44.91693,50.65334
7.7,2.905406,47.27489,50.1803
7.8,1.024124,48.67709,49.70122
7.9,0.1017868,49.11925,49.22104
8,0.1398178,48.60102,48.74083
8.1,1.138198,47.12286,48.26106
8.2,3.095206,44.68968,47.78489
8.3,6.000532,41.32093,47.32146
8.4,9.821959,37.06685,46.88881
8.5,14.48641,32.02964,46.51605
8.6,19.85754,26.38585,46.24339
8.7,25.71435,20.40467,46.11902
8.8,31.73811,14.45331,46.19142
8.9,37.51673,8.980392,46.49712
9,42.57494,4.471457,47.0464
9.1,46.43273,1.378862,47.81159
9.2,48.68398,0.04006881,48.72405
9.3,49.07576,0.6080314,49.68379
9.4,47.56284,3.017361,50.5802
9.5,44.31787,6.998937,51.31681
9.6,39.69328,12.13748,51.83076
9.7,34.14904,17.95141,52.10045
9.8,28.17088,23.97003,52.14091
9.9,22.2019,29.78945,51.99135
10,16.60074,35.10015,51.7009
10.1,11.62743,39.68948,51.31691
10.2,7.450508,43.42759,50.87809
10.3,4.16606,46.24576,50.41182
10.4,1.820405,48.11428,49.93468
10.5,0.4308246,49.02393,49.45475
10.6,0.001338994,48.9732,48.97454
10.7,0.5322532,47.96216,48.49441
10.8,2.023125,45.99266,48.01579
10.9,4.469099,43.07542,47.54453
11,7.850673,39.2433,47.09397
11.1,12.11732,34.57038,46.6877
11.2,17.16636,29.19429,46.36065
11.3,22.82035,23.33748,46.15784
11.4,28.80891,17.3199,46.12881
11.5,34.76337,11.55433,46.3177
11.6,40.23361,6.515709,46.74932
11.7,44.73303,2.682489,47.41552
11.8,47.80909,0.4581261,48.26722
11.9,49.12536,0.09231097,49.21767
12,48.53119,1.627204,50.1584
12.1,46.09508,4.887985,50.98306
12.2,42.08935,9.521334,51.61068
12.3,36.93186,15.06758,51.99944
12.4,31.10561,21.04213,52.14774
12.5,25.0815,27.00334,52.08484
12.6,19.26268,32.59404,51.85672
12.7,13.95738,37.55542,51.5128
12.8,9.376817,41.71971,51.09652
12.9,5.649585,44.99133,50.64091
13,2.843418,47.32418,50.1676
13.1,0.9874088,48.70104,49.68845
13.2,0.09044014,49.11782,49.20826
13.3,0.1538444,48.57422,48.72806
13.4,1.177591,47.07075,48.24834
13.5,3.159847,44.61251,47.77235
13.6,6.089923,41.21952,47.30944
13.7,9.93479,36.94318,46.87797
13.8,14.61999,31.88729,46.50729
13.9,20.0072,26.2307,46.2379
14,25.87295,20.24518,46.11813
14.1,31.8959,14.30041,46.1963
14.2,37.66176,8.846695,46.50846
14.3,42.69428,4.369703,47.06398
14.4,46.51432,1.319799,47.83412
14.5,48.71886,0.03035467,48.74921
14.6,49.0599,0.6487874,49.70869
14.7,47.49807,3.103917,50.60199
14.8,44.21148,7.121877,51.33335
14.9,39.55639,12.28456,51.84095
15,33.9945,18.10975,52.10425
15.1,28.01119,24.12793,52.13912
15.2,22.04775,29.93744,51.98519
15.3,16.46029,35.23139,51.69167
15.4,11.50622,39.79956,51.30579
15.5,7.351922,43.51402,50.86594
15.6,4.091861,46.30735,50.39921
15.7,1.771341,48.15059,49.92192
15.8,0.4071164,49.03484,49.44195
15.9,0.00301486,48.95874,48.96175
16,0.5593128,47.92233,48.48164
16.1,2.075528,45.9276,48.00313
16.2,4.546577,42.9856,47.53218
16.3,7.952374,39.13008,47.08245
16.4,12.2413,34.43647,46.67776
16.5,17.30898,29.04442,46.3534
16.6,22.97573,23.17881,46.15454
16.7,28.96854,17.16224,46.13078
16.8,34.91627,11.40961,46.32587
16.9,40.36712,6.396841,46.76396
17,44.83439,2.601485,47.43587
17.1,47.86757,0.4238719,48.29144
17.2,49.13435,0.10874,49.24309
17.3,48.48962,1.692414,50.18204
17.4,46.00772,4.994663,51.00238
17.5,41.9657,9.65833,51.62403
17.6,36.78422,15.22206,52.00628
17.7,30.9469,21.20163,52.14853
17.8,24.92342,27.1572,52.08062
17.9,19.11465,32.73417,51.84882
18,13.82621,37.67625,51.50246
18.1,9.266873,41.8179,51.08477
18.2,5.56334,45.06513,50.62847
18.3,2.782046,47.37285,50.1549
18.4,0.9513353,48.72433,49.67567
18.5,0.07975566,49.11575,49.1955
18.6,0.1685532,48.54676,48.71532
18.7,1.217684,47.01794,48.23563
18.8,3.225202,44.53465,47.75985
18.9,6.180027,41.11746,47.29749
19,10.0483,36.81889,46.8672
19.1,14.75418,31.74446,46.49863
19.2,20.15733,26.07524,46.23257
19.3,26.03181,20.08562,46.11744
19.4,32.05366,14.14775,46.20141
19.5,37.80642,8.713609,46.52003
19.6,42.81289,4.268895,47.08179
19.7,46.59488,1.261943,47.85682
19.8,48.7525,0.02198098,48.77448
19.9,49.04275,0.6908641,49.73362
